 ID        u              v       
   1   0.0000000000   0.0000000000
   2  -0.0092379245  -0.0050263620
   3  -0.0190897544  -0.0158610794
   4  -0.0285996605  -0.0348315203
   5  -0.0376100724  -0.0612361532
   6  -0.0461426238  -0.0947315468
   7  -0.0542570799  -0.1350731415
   8  -0.0619748514  -0.1820705837
   9  -0.0693014547  -0.2355340483
  10  -0.0762370243  -0.2952708775
  11  -0.0827809711  -0.3610860477
  12  -0.0889329242  -0.4327836719
  13  -0.0946927462  -0.5101676410
  14  -0.1000604048  -0.5930418341
  15  -0.1050358994  -0.6812101520
  16  -0.1096192337  -0.7744765096
  17  -0.1138104103  -0.8726448273
  18  -0.1176094298  -0.9755190269
  19  -0.1210162924  -1.0829030303
  20  -0.1240309983  -1.1946007592
  21  -0.1266535473  -1.3104161351
  22  -0.1288839395  -1.4301530796
  23  -0.1307221748  -1.5536155143
  24  -0.1321682532  -1.6806073608
  25  -0.1332221748  -1.8109325407
  26  -0.1338839395  -1.9443949754
  27  -0.1341535473  -2.0807985866
  28  -0.1340309983  -2.2199472959
  29  -0.1335162924  -2.3616450247
  30  -0.1326094297  -2.5056956948
  31  -0.1313104101  -2.6519032276
  32  -0.1296192336  -2.8000715447
  33  -0.1275359003  -2.9500045676
  34  -0.1250604101  -3.1015062181
  35  -0.1221927631  -3.2543804175
  36  -0.1189329591  -3.4084310876
  37  -0.1152809984  -3.5634621498
  38  -0.1112368807  -3.7192775257
  39  -0.1068006062  -3.8756811370
  40  -0.1019721748  -4.0324769051
  41  -0.0967515866  -4.1894687516
  42  -0.0911388415  -4.3464605981
  43  -0.0851339395  -4.5032563662
  44  -0.0787368807  -4.6596599775
  45  -0.0719476650  -4.8154753534
  46  -0.0647662925  -4.9705064156
  47  -0.0571927631  -5.1245570857
  48  -0.0492270768  -5.2774312852
  49  -0.0408692337  -5.4289329356
  50  -0.0321192337  -5.5788659586
  51  -0.0229770768  -5.7270342758
  52  -0.0134427631  -5.8732418086
  53  -0.0035162925  -6.0172924786
  54   0.0068023350  -6.1589902075
  55   0.0175131193  -6.2981389168
  56   0.0286160604  -6.4345425281
  57   0.0401111585  -6.5680049628
  58   0.0519984134  -6.6983301427
  59   0.0642778251  -6.8253219893
  60   0.0769493938  -6.9487844240
  61   0.0900131193  -7.0685213686
  62   0.1034690017  -7.1843367445
  63   0.1173170408  -7.2960344731
  64   0.1315572364  -7.4034184761
  65   0.1461895876  -7.5062926756
  66   0.1612140932  -7.6044609960
  67   0.1766307547  -7.6977273670
  68   0.1924395875  -7.7858957241
  69   0.2086406483  -7.8687699904
  70   0.2252340730  -7.9461539869
  71   0.2422200352  -8.0178511766
  72   0.2595982740  -8.0836642038
  73   0.2773663056  -8.1433947940
  74   0.2955150610  -8.1968467875
  75   0.3140229856  -8.2438404868
  76   0.3328629436  -8.2842529559
  77   0.3520761428  -8.3180930822
  78   0.3720662088  -8.3455387878
  79   0.3944542064  -8.3666079370
  80   0.4244126077  -8.3788695100
  81   0.4732041468  -8.3587069768
  82   0.0000000000   0.0000000000
  83  -0.0020303157  -0.0019629138
  84  -0.0044140561  -0.0132980318
  85  -0.0063779357  -0.0324559737
  86  -0.0080935944  -0.0590248620
  87  -0.0096278428  -0.0926446130
  88  -0.0109738779  -0.1331107179
  89  -0.0121260575  -0.1802328654
  90  -0.0130823133  -0.2338219471
  91  -0.0138423065  -0.2936847196
  92  -0.0144060931  -0.3596259398
  93  -0.0147737512  -0.4314496273
  94  -0.0149453182  -0.5089596545
  95  -0.0149208060  -0.5919599008
  96  -0.0147002166  -0.6802542698
  97  -0.0142835496  -0.7736466778
  98  -0.0136708044  -0.8719410458
  99  -0.0128619809  -0.9749412958
 100  -0.0118570790  -1.0824513496
 101  -0.0106560986  -1.1942751289
 102  -0.0092590398  -1.3102165552
 103  -0.0076659025  -1.4300795502
 104  -0.0058766868  -1.5536680353
 105  -0.0038913927  -1.6807859322
 106  -0.0017100202  -1.8112371625
 107   0.0006674308  -1.9448256477
 108   0.0032409602  -2.0813553093
 109   0.0060105681  -2.2206300690
 110   0.0089762543  -2.3624538483
 111   0.0121380191  -2.5066305687
 112   0.0154958622  -2.6529641519
 113   0.0190497838  -2.8012585194
 114   0.0227997838  -2.9513175929
 115   0.0267458622  -3.1029452937
 116   0.0308880190  -3.2559455436
 117   0.0352262543  -3.4101222641
 118   0.0397605681  -3.5652793767
 119   0.0444909602  -3.7212208031
 120   0.0494174308  -3.8777504647
 121   0.0545399798  -4.0346722832
 122   0.0598586073  -4.1917901802
 123   0.0653733132  -4.3489080771
 124   0.0710840975  -4.5058298956
 125   0.0769909602  -4.6623595573
 126   0.0830939014  -4.8183009837
 127   0.0893929210  -4.9734580963
 128   0.0958880190  -5.1276348168
 129   0.1025791955  -5.2806350667
 130   0.1094664504  -5.4322627676
 131   0.1165497837  -5.5823218410
 132   0.1238291955  -5.7306162085
 133   0.1313046857  -5.8769497918
 134   0.1389762543  -6.0211265123
 135   0.1468439014  -6.1629502916
 136   0.1549076269  -6.3022250513
 137   0.1631674308  -6.4387547129
 138   0.1716233131  -6.5723431981
 139   0.1802752739  -6.7027944284
 140   0.1891233131  -6.8299123254
 141   0.1981674308  -6.9535008106
 142   0.2074076269  -7.0733638056
 143   0.2168439014  -7.1893052319
 144   0.2264762543  -7.3011290110
 145   0.2363046859  -7.4086390643
 146   0.2463291961  -7.5116393140
 147   0.2565497852  -7.6099336836
 148   0.2669664519  -7.7033261022
 149   0.2775791911  -7.7916205059
 150   0.2883879885  -7.8746208272
 151   0.2993928181  -7.9521309237
 152   0.3105936755  -8.0239543499
 153   0.3219907374  -8.0898938794
 154   0.3335848229  -8.1497511118
 155   0.3453782381  -8.2033283776
 156   0.3573750876  -8.2504401255
 157   0.3695764409  -8.2909496324
 158   0.3819565854  -8.3248439757
 159   0.3943684578  -8.3522965675
 160   0.4061518699  -8.3733130830
 161   0.4143212609  -8.3854547942
 162   0.4145216395  -8.3761569416
 163   0.0000000000   0.0000000000
 164   0.0045451740  -0.0020751247
 165   0.0098312468  -0.0138711222
 166   0.0154191997  -0.0333077699
 167   0.0209423103  -0.0598827417
 168   0.0264005823  -0.0935150184
 169   0.0318274419  -0.1340078627
 170   0.0372446317  -0.1811677993
 171   0.0426602628  -0.2347982893
 172   0.0480762551  -0.2947033030
 173   0.0534926632  -0.3606867458
 174   0.0589092672  -0.4325525419
 175   0.0643259312  -0.5101046125
 176   0.0697426045  -0.5931468791
 177   0.0751592754  -0.6814832634
 178   0.0805759437  -0.7749176869
 179   0.0859926107  -0.8732540712
 180   0.0914092774  -0.9762963379
 181   0.0968259440  -1.0838484084
 182   0.1022426107  -1.1957142045
 183   0.1076592773  -1.3116976476
 184   0.1130759440  -1.4316026594
 185   0.1184926107  -1.5552331614
 186   0.1239092773  -1.6823930751
 187   0.1293259440  -1.8128863222
 188   0.1347426107  -1.9465168241
 189   0.1401592773  -2.0830885026
 190   0.1455759440  -2.2224052791
 191   0.1509926107  -2.3642710751
 192   0.1564092773  -2.5084898124
 193   0.1618259440  -2.6548654124
 194   0.1672426107  -2.8032017968
 195   0.1726592773  -2.9533028870
 196   0.1780759440  -3.1049726046
 197   0.1834926107  -3.2580148713
 198   0.1889092773  -3.4122336086
 199   0.1943259440  -3.5674327380
 200   0.1997426107  -3.7234161812
 201   0.2051592773  -3.8799878597
 202   0.2105759440  -4.0369516950
 203   0.2159926107  -4.1941116087
 204   0.2214092773  -4.3512715225
 205   0.2268259440  -4.5082353578
 206   0.2322426107  -4.6648070363
 207   0.2376592773  -4.8207904795
 208   0.2430759440  -4.9759896089
 209   0.2484926107  -5.1302083462
 210   0.2539092773  -5.2832506129
 211   0.2593259440  -5.4349203306
 212   0.2647426107  -5.5850214208
 213   0.2701592773  -5.7333578052
 214   0.2755759440  -5.8797334052
 215   0.2809926107  -6.0239521425
 216   0.2864092773  -6.1658179386
 217   0.2918259440  -6.3051347151
 218   0.2972426107  -6.4417063936
 219   0.3026592773  -6.5753368956
 220   0.3080759440  -6.7058301427
 221   0.3134926107  -6.8329900565
 222   0.3189092773  -6.9566205585
 223   0.3243259440  -7.0765255703
 224   0.3297426107  -7.1925090135
 225   0.3351592775  -7.3043748096
 226   0.3405759448  -7.4119268802
 227   0.3459926131  -7.5149691469
 228   0.3514092816  -7.6133055313
 229   0.3568259449  -7.7067399549
 230   0.3622425821  -7.7950763392
 231   0.3676591431  -7.8781186059
 232   0.3730755638  -7.9556706766
 233   0.3784919390  -8.0275364727
 234   0.3839091800  -8.0935199154
 235   0.3893306228  -8.1534249263
 236   0.3947641894  -8.2070554231
 237   0.4002197672  -8.2542154642
 238   0.4056811669  -8.2947095536
 239   0.4110009013  -8.3283440487
 240   0.4156509352  -8.3548877120
 241   0.4183995180  -8.3738119725
 242   0.4182319630  -8.3831186608
 243   0.4204433251  -8.3882679174
 244   0.0000000000   0.0000000000
 245   0.0112155355  -0.0050680847
 246   0.0245457913  -0.0179342575
 247   0.0374473896  -0.0372673917
 248   0.0500573804  -0.0637712154
 249   0.0624444920  -0.0973254493
 250   0.0746274983  -0.1377622566
 251   0.0866125399  -0.1848758061
 252   0.0984013787  -0.2384637133
 253   0.1099943276  -0.2983269273
 254   0.1213913253  -0.3642685603
 255   0.1325922947  -0.4360924313
 256   0.1435971983  -0.5136025116
 257   0.1544060242  -0.5966027649
 258   0.1650187705  -0.6848971310
 259   0.1754354375  -0.7782895364
 260   0.1856560258  -0.8765839033
 261   0.1956805356  -0.9795841530
 262   0.2055089670  -1.0870942067
 263   0.2151413199  -1.1989179860
 264   0.2245775944  -1.3148594123
 265   0.2338177905  -1.4347224073
 266   0.2428619081  -1.5583108925
 267   0.2517099474  -1.6854287894
 268   0.2603619081  -1.8158800196
 269   0.2688177905  -1.9494685048
 270   0.2770775944  -2.0859981664
 271   0.2851413199  -2.2252729261
 272   0.2930089670  -2.3670967054
 273   0.3006805356  -2.5112734259
 274   0.3081560258  -2.6576070091
 275   0.3154354376  -2.8059013766
 276   0.3225187709  -2.9559604500
 277   0.3294060258  -3.1075881509
 278   0.3360972023  -3.2605884007
 279   0.3425923003  -3.4147651212
 280   0.3488913199  -3.5699222338
 281   0.3549942611  -3.7258636602
 282   0.3609011239  -3.8823933219
 283   0.3666119082  -4.0393151404
 284   0.3721266141  -4.1964330373
 285   0.3774452415  -4.3535509343
 286   0.3825677905  -4.5104727528
 287   0.3874942611  -4.6670024144
 288   0.3922246533  -4.8229438408
 289   0.3967589670  -4.9781009534
 290   0.4010972023  -5.1322776739
 291   0.4052393592  -5.2852779238
 292   0.4091854376  -5.4369056247
 293   0.4129354376  -5.5869646981
 294   0.4164893592  -5.7352590657
 295   0.4198472023  -5.8815926489
 296   0.4230089670  -6.0257693694
 297   0.4259746533  -6.1675931487
 298   0.4287442611  -6.3068679084
 299   0.4313177905  -6.4433975701
 300   0.4336952415  -6.5769860553
 301   0.4358766141  -6.7074372856
 302   0.4378619082  -6.8345551825
 303   0.4396511239  -6.9581436677
 304   0.4412442611  -7.0780066627
 305   0.4426413199  -7.1939480892
 306   0.4438423004  -7.3057718687
 307   0.4448472025  -7.4132819230
 308   0.4456560265  -7.5162821732
 309   0.4462687724  -7.6145765386
 310   0.4466854391  -7.7079689336
 311   0.4469060215  -7.7962632650
 312   0.4469305051  -7.8792634436
 313   0.4467588641  -7.9567734547
 314   0.4463910941  -8.0285975870
 315   0.4458273721  -8.0945409106
 316   0.4450685202  -8.1544096661
 317   0.4441168507  -8.2080093752
 318   0.4429763377  -8.2551333612
 319   0.4416466458  -8.2955266753
 320   0.4400954542  -8.3288098370
 321   0.4381983605  -8.3544339388
 322   0.4358526469  -8.3719257211
 323   0.4341121806  -8.3829787648
 324   0.4340204412  -8.3939489971
 325   0.0000000000   0.0000000000
 326   0.0203873242  -0.0125771165
 327   0.0402664558  -0.0249197577
 328   0.0600240747  -0.0442642906
 329   0.0796429573  -0.0706315312
 330   0.0989531106  -0.1040628548
 331   0.1178979990  -0.1443710366
 332   0.1364547123  -0.1913574457
 333   0.1546183142  -0.2448188325
 334   0.1723886247  -0.3045558969
 335   0.1897662468  -0.3703714775
 336   0.2067515485  -0.4420693111
 337   0.2233446677  -0.5194533487
 338   0.2395456366  -0.6023275544
 339   0.2553544558  -0.6904958706
 340   0.2707711214  -0.7837622256
 341   0.2857956311  -0.8819305420
 342   0.3004279842  -0.9848047412
 343   0.3146681804  -1.0921887446
 344   0.3285162196  -1.2038864734
 345   0.3419721020  -1.3197018493
 346   0.3550358275  -1.4394387939
 347   0.3677073961  -1.5629012286
 348   0.3799868079  -1.6898930751
 349   0.3918740628  -1.8202182549
 350   0.4033691608  -1.9536806897
 351   0.4144721020  -2.0900843009
 352   0.4251828863  -2.2292330101
 353   0.4355015138  -2.3709307390
 354   0.4454279844  -2.5149814091
 355   0.4549622981  -2.6611889418
 356   0.4641044550  -2.8093572589
 357   0.4728544550  -2.9592902819
 358   0.4812122981  -3.1107919324
 359   0.4891779844  -3.2636661318
 360   0.4967515138  -3.4177168019
 361   0.5039328863  -3.5727478641
 362   0.5107221020  -3.7285632400
 363   0.5171191609  -3.8849668513
 364   0.5231240628  -4.0417626194
 365   0.5287368079  -4.1987544659
 366   0.5339573962  -4.3557463124
 367   0.5387858275  -4.5125420805
 368   0.5432221020  -4.6689456918
 369   0.5472662197  -4.8247610677
 370   0.5509181805  -4.9797921299
 371   0.5541779844  -5.1338428000
 372   0.5570456315  -5.2867169995
 373   0.5595211217  -5.4382186499
 374   0.5616044550  -5.5881516729
 375   0.5632956315  -5.7363199900
 376   0.5645946511  -5.8825275229
 377   0.5655015138  -6.0265781929
 378   0.5660162197  -6.1682759218
 379   0.5661387687  -6.3074246311
 380   0.5658691609  -6.4438282424
 381   0.5652073962  -6.5772906771
 382   0.5641534746  -6.7076158570
 383   0.5627073962  -6.8346077035
 384   0.5608691609  -6.9580701383
 385   0.5586387688  -7.0778070829
 386   0.5560162198  -7.1936224590
 387   0.5530015139  -7.3053201881
 388   0.5495946506  -7.4127041919
 389   0.5457956292  -7.5155783914
 390   0.5416044485  -7.6137467052
 391   0.5370211100  -7.7070130470
 392   0.5320456291  -7.7951813241
 393   0.5266780625  -7.8780554568
 394   0.5209185460  -7.9554394671
 395   0.5147672534  -8.0271377353
 396   0.5082239232  -8.0929554600
 397   0.5012860704  -8.1526987626
 398   0.4939446101  -8.2061716157
 399   0.4861780719  -8.2531614780
 400   0.4779601297  -8.2933979368
 401   0.4693394060  -8.3264847357
 402   0.4607182967  -8.3519041435
 403   0.4534175412  -8.3697757764
 404   0.4492066004  -8.3824591208
 405   0.4482421173  -8.3950008207
